# DoReDog MIDI extraction
# source,OpenScore Lieder Corpus (CC0)
# ticks_per_quarter,480
# meta,0,0,tempo,500000
# meta,0,0,time_signature,4/4
track,channel,pitch,vel,start,end
1,0,60,80,0,960
2,0,59,80,960,1920
1,0,60,80,1920,2880
2,0,59,80,2880,3840
1,0,60,80,3840,4800
2,0,59,80,4800,5760
1,0,64,80,5280,5520
1,0,64,80,5520,5760
1,0,60,80,5760,6720
2,0,59,80,6720,7680
1,0,60,80,7680,8640
1,0,66,80,7680,8160
1,0,64,80,8160,8640
2,0,59,80,8640,9600
1,0,67,80,8640,9120
1,0,64,80,9120,9600
1,0,60,80,9600,10560
2,0,59,80,10560,11520
2,0,52,80,11520,11640
1,0,60,80,11520,11760
2,0,59,80,11640,11760
2,0,52,80,11760,11880
1,0,60,80,11760,11880
2,0,59,80,11880,12000
2,0,52,80,12000,12120
1,0,60,80,12000,12240
2,0,59,80,12120,12240
2,0,52,80,12240,12360
1,0,60,80,12240,12360
2,0,59,80,12360,12480
2,0,52,80,12480,12600
1,0,60,80,12480,12720
2,0,59,80,12600,12720
2,0,52,80,12720,12840
1,0,60,80,12720,12840
2,0,59,80,12840,12960
2,0,52,80,12960,13080
1,0,60,80,12960,13200
1,0,67,80,12960,13200
2,0,59,80,13080,13200
2,0,52,80,13200,13320
1,0,60,80,13200,13320
1,0,67,80,13200,13440
2,0,59,80,13320,13440
2,0,52,80,13440,13560
1,0,60,80,13440,13680
1,0,64,80,13440,14160
2,0,59,80,13560,13680
2,0,52,80,13680,13800
1,0,60,80,13680,13800
2,0,59,80,13800,13920
2,0,52,80,13920,14040
1,0,60,80,13920,14160
2,0,59,80,14040,14160
2,0,52,80,14160,14280
1,0,60,80,14160,14280
1,0,64,80,14160,14400
2,0,59,80,14280,14400
2,0,53,80,14400,14520
1,0,61,80,14400,14640
1,0,65,80,14400,15360
1,0,60,80,14520,14640
2,0,53,80,14640,14760
1,0,61,80,14640,14760
1,0,60,80,14760,14880
2,0,53,80,14880,15000
1,0,61,80,14880,15120
1,0,60,80,15000,15120
2,0,53,80,15120,15240
1,0,61,80,15120,15240
1,0,60,80,15240,15360
2,0,53,80,15360,15480
1,0,61,80,15360,15600
1,0,60,80,15480,15600
2,0,53,80,15600,15720
1,0,61,80,15600,15720
1,0,60,80,15720,15840
2,0,53,80,15840,15960
1,0,61,80,15840,16080
1,0,68,80,15840,16320
1,0,60,80,15960,16080
2,0,53,80,16080,16200
1,0,61,80,16080,16200
1,0,60,80,16200,16320
2,0,53,80,16320,16440
1,0,61,80,16320,16560
1,0,71,80,16320,17280
1,0,60,80,16440,16560
2,0,53,80,16560,16680
1,0,61,80,16560,16680
1,0,60,80,16680,16800
2,0,53,80,16800,16920
1,0,61,80,16800,17040
1,0,60,80,16920,17040
2,0,53,80,17040,17160
1,0,61,80,17040,17160
1,0,60,80,17160,17280
2,0,53,80,17280,17400
1,0,61,80,17280,17520
1,0,60,80,17400,17520
2,0,53,80,17520,17640
1,0,61,80,17520,17640
1,0,60,80,17640,17760
2,0,53,80,17760,17880
1,0,61,80,17760,18000
1,0,68,80,17760,18000
1,0,60,80,17880,18000
2,0,53,80,18000,18120
1,0,61,80,18000,18120
1,0,68,80,18000,18240
1,0,60,80,18120,18240
2,0,53,80,18240,18360
1,0,61,80,18240,18480
1,0,65,80,18240,19200
1,0,60,80,18360,18480
2,0,53,80,18480,18600
1,0,61,80,18480,18600
1,0,60,80,18600,18720
2,0,53,80,18720,18840
1,0,61,80,18720,18960
1,0,60,80,18840,18960
2,0,53,80,18960,19080
1,0,61,80,18960,19080
1,0,60,80,19080,19200
2,0,53,80,19200,19320
1,0,62,80,19200,19440
1,0,61,80,19320,19440
2,0,53,80,19440,19560
1,0,62,80,19440,19560
1,0,61,80,19560,19680
2,0,53,80,19680,19800
1,0,62,80,19680,19920
1,0,61,80,19800,19920
2,0,53,80,19920,20040
1,0,62,80,19920,20040
1,0,61,80,20040,20160
1,0,61,80,20040,20160
2,0,53,80,20160,20280
1,0,62,80,20160,20400
1,0,62,80,20160,20520
1,0,61,80,20280,20400
2,0,53,80,20400,20520
1,0,62,80,20400,20640
1,0,61,80,20520,20640
2,0,53,80,20640,20760
1,0,62,80,20640,20880
1,0,62,80,20640,21000
1,0,61,80,20760,20880
2,0,53,80,20880,21000
1,0,62,80,20880,21120
1,0,61,80,21000,21120
2,0,53,80,21120,21240
1,0,62,80,21120,21360
1,0,61,80,21240,21360
2,0,53,80,21360,21480
1,0,62,80,21360,21480
1,0,61,80,21480,21600
2,0,53,80,21600,21720
1,0,62,80,21600,21840
1,0,61,80,21720,21840
2,0,53,80,21840,21960
1,0,62,80,21840,21960
1,0,61,80,21960,22080
1,0,61,80,22080,22200
1,0,68,80,22080,22320
1,0,67,80,22200,22320
1,0,61,80,22320,22440
1,0,68,80,22320,22440
1,0,67,80,22440,22560
1,0,61,80,22560,22680
1,0,68,80,22560,22800
1,0,67,80,22680,22800
1,0,61,80,22800,22920
1,0,68,80,22800,22920
1,0,67,80,22920,23040
1,0,60,80,23040,23160
1,0,68,80,23040,23280
1,0,67,80,23160,23280
1,0,60,80,23280,23400
1,0,68,80,23280,23400
1,0,67,80,23400,23520
1,0,60,80,23520,23640
1,0,68,80,23520,23760
1,0,72,80,23520,23760
1,0,67,80,23640,23760
1,0,60,80,23760,23880
1,0,68,80,23760,23880
1,0,72,80,23760,24000
1,0,67,80,23880,24000
1,0,60,80,24000,24120
1,0,68,80,24000,24240
1,0,72,80,24000,24960
1,0,67,80,24120,24240
1,0,60,80,24240,24360
1,0,68,80,24240,24360
1,0,67,80,24360,24480
1,0,60,80,24480,24600
1,0,68,80,24480,24720
1,0,67,80,24600,24720
1,0,60,80,24720,24840
1,0,68,80,24720,24840
1,0,67,80,24840,24960
1,0,60,80,24960,25080
1,0,68,80,24960,25200
1,0,72,80,24960,26400
1,0,67,80,25080,25200
1,0,60,80,25200,25320
1,0,68,80,25200,25320
1,0,67,80,25320,25440
1,0,60,80,25440,25560
1,0,68,80,25440,25680
1,0,67,80,25560,25680
1,0,60,80,25680,25800
1,0,68,80,25680,25800
1,0,67,80,25800,25920
1,0,60,80,25920,26040
1,0,68,80,25920,26160
1,0,67,80,26040,26160
1,0,60,80,26160,26280
1,0,68,80,26160,26280
1,0,67,80,26280,26400
1,0,60,80,26400,26520
1,0,60,80,26400,26760
1,0,68,80,26400,26640
1,0,67,80,26520,26640
1,0,60,80,26640,26880
1,0,68,80,26640,26760
1,0,67,80,26760,26880
1,0,60,80,26880,27000
1,0,69,80,26880,27120
1,0,68,80,27000,27120
1,0,60,80,27120,27240
1,0,69,80,27120,27240
1,0,68,80,27240,27360
1,0,60,80,27360,27480
1,0,68,80,27360,27600
1,0,67,80,27480,27600
1,0,60,80,27600,27720
1,0,68,80,27600,27720
1,0,67,80,27720,27840
1,0,60,80,27840,27960
1,0,67,80,27840,28080
1,0,66,80,27960,28080
1,0,60,80,28080,28200
1,0,67,80,28080,28200
1,0,66,80,28200,28320
1,0,60,80,28320,28440
1,0,68,80,28320,28560
1,0,67,80,28440,28560
1,0,60,80,28560,28680
1,0,68,80,28560,28680
1,0,67,80,28680,28800
1,0,60,80,28800,28920
1,0,69,80,28800,29040
1,0,68,80,28920,29040
1,0,60,80,29040,29160
1,0,69,80,29040,29160
1,0,68,80,29160,29280
1,0,60,80,29280,29400
1,0,68,80,29280,29520
1,0,67,80,29400,29520
1,0,60,80,29520,29640
1,0,68,80,29520,29640
1,0,67,80,29640,29760
1,0,60,80,29760,29880
1,0,67,80,29760,30000
1,0,66,80,29880,30000
1,0,60,80,30000,30120
1,0,67,80,30000,30120
1,0,66,80,30120,30240
1,0,60,80,30240,30360
1,0,68,80,30240,30480
1,0,67,80,30360,30480
1,0,60,80,30480,30600
1,0,68,80,30480,30600
1,0,67,80,30600,30720
1,0,60,80,30720,30840
1,0,69,80,30720,30960
1,0,68,80,30840,30960
1,0,60,80,30960,31080
1,0,69,80,30960,31080
1,0,68,80,31080,31200
1,0,60,80,31200,31320
1,0,69,80,31200,31440
1,0,68,80,31320,31440
1,0,60,80,31440,31560
1,0,69,80,31440,31560
1,0,68,80,31560,31680
1,0,60,80,31680,31800
1,0,69,80,31680,31920
1,0,68,80,31800,31920
1,0,60,80,31920,32040
1,0,69,80,31920,32040
1,0,68,80,32040,32160
1,0,60,80,32160,32280
1,0,69,80,32160,32400
1,0,68,80,32280,32400
1,0,60,80,32400,32520
1,0,69,80,32400,32520
1,0,68,80,32520,32640
1,0,60,80,32640,32760
1,0,69,80,32760,32880
1,0,68,80,32880,33120
1,0,68,80,33120,34560
1,0,68,80,34080,34560
1,0,68,80,34560,35200
1,0,69,80,34560,34880
1,0,68,80,34880,36480
1,0,67,80,35200,35520
1,0,68,80,35520,36480
1,0,68,80,36480,36960
1,0,68,80,36480,37200
1,0,60,80,37200,37320
1,0,69,80,37320,37440
1,0,68,80,37440,38400
1,0,64,80,38400,39360
1,0,68,80,38400,40320
1,0,61,80,39360,39680
1,0,60,80,39680,40000
1,0,61,80,40000,40320
1,0,63,80,40320,41280
1,0,68,80,40320,41040
1,0,60,80,41040,41160
1,0,68,80,41160,41280
1,0,63,80,41280,41760
1,0,69,80,41280,42240
1,0,63,80,42240,42720
1,0,69,80,42240,43680
1,0,66,80,42720,43200
1,0,69,80,43200,43920
1,0,72,80,43680,44160
1,0,69,80,43920,44160
2,0,59,80,44160,44280
1,0,71,80,44160,45120
1,0,71,80,44160,45600
1,0,60,80,44280,44400
2,0,59,80,44400,44520
1,0,60,80,44520,44640
1,0,71,80,45120,45600
2,0,52,80,45600,45840
1,0,64,80,45600,45840
1,0,76,80,45600,46080
2,0,52,80,45840,45960
1,0,64,80,45840,46080
2,0,52,80,46080,46320
2,0,59,80,46080,46200
1,0,64,80,46080,46320
1,0,76,80,46080,47040
1,0,60,80,46200,46320
2,0,52,80,46320,46440
2,0,59,80,46320,46440
1,0,64,80,46320,46560
1,0,60,80,46440,46560
2,0,54,80,46560,46800
2,0,59,80,46560,46680
1,0,64,80,46560,46800
1,0,60,80,46680,46800
2,0,54,80,46800,46920
2,0,59,80,46800,46920
1,0,64,80,46800,47040
1,0,60,80,46920,47040
2,0,52,80,47040,47280
2,0,59,80,47040,47160
1,0,64,80,47040,47280
1,0,60,80,47160,47280
2,0,52,80,47280,47400
2,0,59,80,47280,47400
1,0,64,80,47280,47520
1,0,60,80,47400,47520
2,0,55,80,47520,47760
2,0,59,80,47520,47640
1,0,64,80,47520,47760
1,0,64,80,47520,48000
1,0,60,80,47640,47760
2,0,55,80,47760,47880
2,0,59,80,47760,47880
1,0,64,80,47760,48000
1,0,60,80,47880,48000
2,0,52,80,48000,48240
2,0,59,80,48000,48120
1,0,64,80,48000,48240
1,0,67,80,48000,48480
1,0,60,80,48120,48240
2,0,52,80,48240,48360
2,0,59,80,48240,48360
1,0,64,80,48240,48480
1,0,60,80,48360,48480
2,0,54,80,48480,48720
2,0,59,80,48480,48600
1,0,64,80,48480,48720
1,0,66,80,48480,48720
1,0,60,80,48600,48720
2,0,54,80,48720,48840
2,0,59,80,48720,48840
1,0,64,80,48720,48960
1,0,66,80,48720,48960
1,0,60,80,48840,48960
2,0,52,80,48960,49200
2,0,59,80,48960,49080
1,0,64,80,48960,49200
1,0,64,80,48960,49440
1,0,60,80,49080,49200
2,0,52,80,49200,49320
2,0,59,80,49200,49320
1,0,64,80,49200,49440
1,0,60,80,49320,49440
2,0,55,80,49440,49680
2,0,59,80,49440,49560
1,0,64,80,49440,49680
1,0,64,80,49440,49920
1,0,60,80,49560,49680
2,0,55,80,49680,49800
2,0,59,80,49680,49800
1,0,64,80,49680,49920
1,0,60,80,49800,49920
1,0,62,80,49920,50400
1,0,66,80,49920,50880
1,0,69,80,49920,50880
1,0,74,80,49920,50880
1,0,69,80,50400,50880
1,0,86,80,50640,50880
1,0,69,80,50880,51360
1,0,76,80,50880,51840
1,0,88,80,50880,51040
1,0,86,80,51040,51200
1,0,85,80,51200,51360
1,0,69,80,51360,51600
1,0,86,80,51360,51840
1,0,69,80,51600,51840
1,0,66,80,51840,52800
1,0,69,80,51840,52800
1,0,74,80,51840,52800
1,0,76,80,52800,53760
2,0,59,80,53760,54240
1,0,66,80,53760,54720
1,0,69,80,53760,54720
1,0,74,80,53760,54720
1,0,74,80,53760,55680
1,0,78,80,54480,54720
1,0,76,80,54720,55680
1,0,79,80,54720,54880
1,0,78,80,54880,55040
1,0,77,80,55040,55200
1,0,78,80,55200,55680
1,0,66,80,55680,56640
1,0,69,80,55680,56640
1,0,74,80,55680,56640
1,0,76,80,56640,57600
1,0,61,80,57600,58080
1,0,67,80,57600,58560
1,0,71,80,57600,58080
1,0,71,80,57600,58560
1,0,73,80,57600,58560
1,0,69,80,58080,58560
1,0,88,80,58320,58560
1,0,67,80,58560,59040
1,0,76,80,58560,59520
1,0,90,80,58560,58720
1,0,88,80,58720,58880
1,0,86,80,58880,59040
1,0,71,80,59040,59520
1,0,88,80,59040,59520
1,0,67,80,59520,60480
1,0,71,80,59520,60480
1,0,73,80,59520,60480
1,0,76,80,60480,61440
2,0,59,80,61440,61920
1,0,61,80,61440,62400
1,0,64,80,61440,63360
1,0,67,80,62160,62400
1,0,64,80,62400,63360
1,0,69,80,62400,62560
1,0,67,80,62560,62720
1,0,66,80,62720,62880
1,0,67,80,62880,63360
1,0,61,80,63360,64320
1,0,64,80,64320,65280
2,0,52,80,65280,65520
1,0,60,80,65280,66240
2,0,52,80,65520,65640
2,0,54,80,65760,66000
2,0,54,80,66000,66120
2,0,52,80,66240,66480
2,0,59,80,66240,67200
2,0,52,80,66480,66600
2,0,55,80,66720,66960
2,0,55,80,66960,67080
1,0,60,80,67200,68160
2,0,59,80,68160,69120
1,0,60,80,69120,70080
1,0,72,80,69120,70080
1,0,66,80,69600,69840
1,0,66,80,69840,70080
2,0,59,80,70080,71040
1,0,67,80,70080,71040
1,0,71,80,70080,71040
2,0,52,80,71040,71280
1,0,60,80,71040,72000
2,0,52,80,71280,71400
2,0,54,80,71520,71760
2,0,54,80,71760,71880
2,0,59,80,72000,72960
2,0,44,80,72960,73440
2,0,51,80,72960,73440
2,0,52,80,72960,73200
1,0,60,80,72960,73920
1,0,63,80,72960,73440
1,0,67,80,72960,73440
1,0,75,80,72960,73440
2,0,52,80,73200,73320
2,0,55,80,73440,73680
1,0,67,80,73440,73920
2,0,55,80,73680,73800
2,0,56,80,73920,74160
2,0,59,80,73920,74880
2,0,56,80,74160,74280
1,0,63,80,74160,74280
1,0,64,80,74280,74400
2,0,56,80,74400,74520
1,0,63,80,74400,74520
1,0,68,80,74400,74880
1,0,64,80,74520,74640
2,0,56,80,74640,74760
1,0,63,80,74640,74760
1,0,64,80,74760,74880
1,0,68,80,74880,75000
1,0,76,80,75000,75120
1,0,68,80,75120,75240
1,0,75,80,75120,75240
1,0,76,80,75240,75360
1,0,68,80,75360,75480
1,0,75,80,75360,75480
1,0,76,80,75480,75600
1,0,68,80,75600,75720
1,0,75,80,75600,75720
1,0,76,80,75720,75840
2,0,56,80,75840,76320
1,0,63,80,75840,76320
1,0,68,80,75840,75960
1,0,75,80,75840,75960
1,0,75,80,75840,76200
1,0,76,80,75960,76080
1,0,68,80,76080,76200
1,0,75,80,76080,76440
1,0,76,80,76200,76320
2,0,56,80,76320,76800
1,0,68,80,76320,76440
1,0,75,80,76320,76680
1,0,76,80,76440,76560
1,0,68,80,76560,76680
1,0,75,80,76560,76920
1,0,76,80,76680,76800
2,0,57,80,76800,76960
1,0,68,80,76800,76920
1,0,75,80,76800,77160
1,0,76,80,76920,77040
2,0,56,80,76960,77120
1,0,68,80,77040,77160
1,0,75,80,77040,77400
2,0,55,80,77120,77280
1,0,76,80,77160,77280
2,0,56,80,77280,77760
1,0,68,80,77280,77400
1,0,75,80,77280,77640
1,0,76,80,77400,77520
1,0,68,80,77520,77640
1,0,75,80,77520,77760
1,0,76,80,77640,77760
1,0,61,80,77760,77880
1,0,73,80,77760,78240
1,0,73,80,77760,78720
1,0,61,80,78720,79680
1,0,68,80,79200,79680
1,0,73,80,79680,80640
1,0,61,80,80640,81600
1,0,69,80,81600,81920
1,0,73,80,81600,82560
1,0,68,80,81920,82240
1,0,67,80,82240,82560
1,0,61,80,82560,83520
1,0,68,80,82560,83520
1,0,73,80,83520,84480
1,0,61,80,84480,85440
1,0,64,80,85440,86400
1,0,76,80,86400,87360
1,0,64,80,86880,87360
1,0,64,80,87360,88320
1,0,76,80,88320,89280
1,0,61,80,89280,89600
1,0,68,80,89280,90240
1,0,60,80,89600,89920
1,0,61,80,89920,90240
1,0,63,80,90240,91200
1,0,80,80,90240,91200
1,0,68,80,91200,92160
1,0,80,80,92160,93120
1,0,69,80,93120,94080
1,0,81,80,94080,95040
1,0,69,80,95040,96000
1,0,81,80,96000,96960
1,0,63,80,96960,97440
1,0,69,80,96960,97920
1,0,66,80,97440,97920
1,0,69,80,97920,98400
1,0,81,80,97920,98880
1,0,72,80,98400,98880
1,0,69,80,98880,99840
1,0,81,80,99840,100800
1,0,71,80,100800,101760
1,0,71,80,100800,102240
1,0,83,80,101760,102720
1,0,71,80,102240,102720
1,0,71,80,102720,103680
1,0,83,80,103680,104640
1,0,64,80,104640,105120
1,0,67,80,104640,105120
1,0,71,80,104640,104760
1,0,76,80,104640,106560
1,0,83,80,104760,104880
1,0,71,80,104880,105000
1,0,83,80,105000,105120
2,0,52,80,105120,105600
2,0,55,80,105120,105600
1,0,67,80,105120,105240
1,0,71,80,105240,105360
1,0,67,80,105360,105480
1,0,71,80,105480,105600
2,0,40,80,105600,105840
2,0,52,80,105600,105840
1,0,60,80,105600,106560
2,0,40,80,105840,105960
2,0,52,80,105840,105960
2,0,42,80,106080,106320
2,0,54,80,106080,106320
2,0,42,80,106320,106440
2,0,54,80,106320,106440
2,0,59,80,106560,107520
2,0,40,80,107520,107760
2,0,52,80,107520,107760
1,0,60,80,107520,108480
2,0,40,80,107760,107880
2,0,52,80,107760,107880
2,0,43,80,108000,108240
2,0,55,80,108000,108240
2,0,43,80,108240,108360
2,0,55,80,108240,108360
2,0,40,80,108480,108720
2,0,52,80,108480,108720
2,0,59,80,108480,109440
1,0,64,80,108480,108960
2,0,40,80,108720,108840
2,0,52,80,108720,108840
2,0,42,80,108960,109200
2,0,54,80,108960,109200
1,0,66,80,108960,109440
2,0,42,80,109200,109320
2,0,54,80,109200,109320
1,0,60,80,109440,110400
2,0,59,80,110400,111360
2,0,40,80,111360,111600
2,0,52,80,111360,111600
1,0,60,80,111360,112320
1,0,64,80,111360,112080
2,0,40,80,111600,111720
2,0,52,80,111600,111720
2,0,43,80,111840,112080
2,0,55,80,111840,112080
2,0,43,80,112080,112200
2,0,55,80,112080,112200
1,0,67,80,112080,112320
2,0,40,80,112320,112560
2,0,52,80,112320,112560
2,0,59,80,112320,113280
1,0,72,80,112320,113280
2,0,40,80,112560,112680
2,0,52,80,112560,112680
2,0,42,80,112800,113040
2,0,54,80,112800,113040
2,0,42,80,113040,113160
2,0,54,80,113040,113160
1,0,60,80,113280,114240
2,0,59,80,114240,115200
2,0,40,80,115200,115440
2,0,52,80,115200,115440
1,0,60,80,115200,116160
1,0,71,80,115200,115440
2,0,40,80,115440,115560
2,0,52,80,115440,115560
2,0,43,80,115680,115920
2,0,55,80,115680,115920
2,0,43,80,115920,116040
2,0,55,80,115920,116040
2,0,40,80,116160,116400
2,0,52,80,116160,116400
2,0,59,80,116160,117120
2,0,40,80,116400,116520
2,0,52,80,116400,116520
2,0,36,80,116640,116880
2,0,48,80,116640,116880
1,0,70,80,116640,116880
2,0,36,80,116880,117000
2,0,48,80,116880,117000
1,0,70,80,116880,117120
2,0,59,80,117120,117240
1,0,64,80,117120,117240
1,0,60,80,117240,117360
2,0,59,80,117360,117480
1,0,64,80,117360,117480
1,0,60,80,117480,117600
2,0,59,80,117600,117720
1,0,64,80,117600,117720
2,0,58,80,117720,117840
2,0,59,80,117840,117960
1,0,64,80,117840,117960
2,0,58,80,117960,118080
2,0,40,80,118080,118320
2,0,52,80,118080,118320
2,0,59,80,118080,118200
1,0,64,80,118080,118320
1,0,71,80,118080,118800
1,0,60,80,118200,118320
2,0,40,80,118320,118440
2,0,52,80,118320,118440
2,0,59,80,118320,118440
1,0,64,80,118320,118560
1,0,60,80,118440,118560
2,0,36,80,118560,118800
2,0,48,80,118560,118800
2,0,59,80,118560,118680
1,0,64,80,118560,118800
2,0,58,80,118680,118800
2,0,36,80,118800,118920
2,0,48,80,118800,118920
2,0,59,80,118800,118920
1,0,64,80,118800,119040
1,0,71,80,118800,119040
2,0,58,80,118920,119040
2,0,43,80,119040,119280
2,0,55,80,119040,119280
2,0,59,80,119040,119160
1,0,64,80,119040,119280
1,0,76,80,119040,120000
1,0,60,80,119160,119280
2,0,43,80,119280,119400
2,0,55,80,119280,119400
2,0,59,80,119280,119400
1,0,64,80,119280,119520
1,0,60,80,119400,119520
2,0,36,80,119520,119760
2,0,48,80,119520,119760
2,0,59,80,119520,119640
1,0,64,80,119520,119760
2,0,58,80,119640,119760
2,0,36,80,119760,119880
2,0,48,80,119760,119880
2,0,59,80,119760,119880
1,0,64,80,119760,120000
2,0,58,80,119880,120000
2,0,43,80,120000,120240
2,0,55,80,120000,120240
2,0,59,80,120000,120120
1,0,64,80,120000,120240
1,0,60,80,120120,120240
2,0,43,80,120240,120360
2,0,55,80,120240,120360
2,0,59,80,120240,120360
1,0,64,80,120240,120480
1,0,60,80,120360,120480
2,0,48,80,120480,120720
1,0,60,80,120480,120720
1,0,64,80,120480,120720
1,0,71,80,120480,120600
1,0,70,80,120600,120720
2,0,48,80,120720,120840
1,0,60,80,120720,120840
1,0,64,80,120720,120960
1,0,71,80,120720,120840
1,0,70,80,120840,120960
1,0,62,80,120960,121920
1,0,66,80,120960,121920
1,0,69,80,120960,121920
1,0,74,80,120960,121920
1,0,78,80,120960,121920
1,0,81,80,120960,121920
1,0,71,80,121920,122880
1,0,83,80,121920,122880
1,0,62,80,122880,123840
1,0,66,80,122880,123840
1,0,69,80,122880,123840
1,0,74,80,122880,123520
1,0,76,80,122880,123200
1,0,78,80,122880,123840
1,0,81,80,122880,123840
1,0,74,80,123200,123840
1,0,73,80,123520,123840
1,0,71,80,123840,124800
1,0,74,80,123840,124800
1,0,83,80,123840,124800
1,0,62,80,124800,125760
1,0,66,80,124800,125760
1,0,69,80,124800,125760
1,0,74,80,124800,125760
1,0,78,80,124800,125760
1,0,81,80,124800,125760
1,0,71,80,125760,126720
1,0,83,80,125760,126720
1,0,62,80,126720,127680
1,0,65,80,126720,127680
1,0,69,80,126720,127680
1,0,74,80,126720,127200
1,0,74,80,126720,127680
1,0,77,80,126720,127680
1,0,81,80,126720,127680
1,0,74,80,127200,127680
1,0,71,80,127680,128640
1,0,73,80,127680,128160
1,0,83,80,127680,128640
1,0,72,80,128160,128400
1,0,72,80,128400,128640
1,0,61,80,128640,129120
1,0,65,80,128640,129120
1,0,69,80,128640,129120
1,0,73,80,128640,129120
1,0,77,80,128640,129120
1,0,81,80,128640,129120
1,0,71,80,129120,129600
1,0,83,80,129120,129600
1,0,60,80,129600,130080
1,0,65,80,129600,130080
1,0,69,80,129600,130080
1,0,72,80,129600,130080
1,0,77,80,129600,130080
1,0,81,80,129600,130080
1,0,71,80,130080,130560
1,0,83,80,130080,130560
2,0,48,80,130560,131040
1,0,65,80,130560,131040
1,0,77,80,130560,131040
1,0,60,80,131040,131520
1,0,76,80,131040,131520
1,0,77,80,131040,131520
2,0,49,80,131520,132000
1,0,64,80,131520,132000
1,0,61,80,132000,132480
1,0,76,80,132000,132480
2,0,48,80,132480,132960
1,0,65,80,132480,132960
1,0,60,80,132960,133440
1,0,77,80,132960,133440
2,0,49,80,133440,133920
1,0,64,80,133440,133920
1,0,61,80,133920,134400
1,0,76,80,133920,134400
2,0,48,80,134400,134880
1,0,65,80,134400,134880
1,0,60,80,134880,135360
1,0,77,80,134880,135360
2,0,49,80,135360,136800
1,0,64,80,135360,136800
1,0,68,80,135840,136320
1,0,61,80,136800,138240
1,0,76,80,136800,138240
2,0,49,80,138240,139200
1,0,64,80,138240,139200
1,0,69,80,138240,138560
1,0,68,80,138560,138880
1,0,67,80,138880,139200
1,0,61,80,139200,140160
1,0,68,80,139200,140160
1,0,76,80,139200,140160
2,0,49,80,140160,141120
1,0,64,80,140160,141120
1,0,61,80,141120,142080
1,0,76,80,141120,142080
2,0,49,80,142080,143040
1,0,64,80,142080,143040
1,0,61,80,143040,144000
1,0,76,80,143040,144000
1,0,64,80,143520,144000
2,0,49,80,144000,144960
1,0,64,80,144000,144960
1,0,61,80,144960,145920
1,0,76,80,144960,145920
2,0,51,80,145920,146880
1,0,61,80,145920,146240
1,0,66,80,145920,146880
1,0,60,80,146240,146560
1,0,61,80,146560,146880
1,0,63,80,146880,147840
1,0,63,80,146880,147840
1,0,78,80,146880,147840
2,0,51,80,147840,148800
1,0,66,80,147840,148800
1,0,63,80,148800,149760
1,0,78,80,148800,149760
1,0,63,80,149760,150720
1,0,78,80,149760,150720
1,0,75,80,150720,151680
1,0,90,80,150720,151680
1,0,63,80,151680,152640
1,0,78,80,151680,152640
1,0,75,80,152640,153600
1,0,90,80,152640,153600
1,0,63,80,153600,154080
1,0,63,80,153600,154560
1,0,78,80,153600,154560
1,0,66,80,154080,154560
1,0,69,80,154560,155040
1,0,75,80,154560,155520
1,0,90,80,154560,155520
1,0,72,80,155040,155520
1,0,63,80,155520,156480
1,0,78,80,155520,156480
1,0,75,80,156480,157440
1,0,90,80,156480,157440
1,0,63,80,157440,158400
1,0,71,80,157440,158880
1,0,78,80,157440,158400
1,0,75,80,158400,159360
1,0,90,80,158400,159360
1,0,71,80,158880,159360
1,0,63,80,159360,160320
1,0,78,80,159360,160320
1,0,75,80,160320,161280
1,0,90,80,160320,161280
2,0,59,80,161280,161520
1,0,64,80,161280,161760
1,0,76,80,161280,161760
1,0,76,80,161280,163200
1,0,79,80,161280,161760
2,0,59,80,161520,161760
2,0,52,80,161760,162240
2,0,59,80,161760,162000
1,0,64,80,161760,162240
1,0,91,80,161760,162240
2,0,59,80,162000,162240
2,0,40,80,162240,162480
2,0,52,80,162240,162480
1,0,67,80,162240,162720
2,0,40,80,162480,162600
2,0,52,80,162480,162600
2,0,42,80,162720,162960
2,0,54,80,162720,162960
1,0,79,80,162720,163200
2,0,42,80,162960,163080
2,0,54,80,162960,163080
1,0,67,80,163200,163320
1,0,66,80,163320,163440
1,0,67,80,163440,163560
1,0,66,80,163560,163680
1,0,67,80,163680,163800
1,0,66,80,163800,163920
1,0,67,80,163920,164040
1,0,66,80,164040,164160
2,0,40,80,164160,164400
2,0,52,80,164160,164400
2,0,59,80,164160,164400
1,0,67,80,164160,164280
1,0,66,80,164280,164400
2,0,40,80,164400,164520
2,0,52,80,164400,164520
2,0,59,80,164400,164640
1,0,67,80,164400,164520
1,0,66,80,164520,164640
2,0,43,80,164640,164880
2,0,55,80,164640,164880
2,0,59,80,164640,164880
1,0,67,80,164640,164760
1,0,71,80,164640,164880
1,0,66,80,164760,164880
2,0,43,80,164880,165000
2,0,55,80,164880,165000
2,0,59,80,164880,165120
1,0,67,80,164880,165000
1,0,71,80,164880,165120
1,0,66,80,165000,165120
2,0,40,80,165120,165360
2,0,52,80,165120,165360
2,0,59,80,165120,165360
1,0,67,80,165120,165240
1,0,76,80,165120,165840
1,0,66,80,165240,165360
2,0,40,80,165360,165480
2,0,52,80,165360,165480
2,0,59,80,165360,165600
1,0,67,80,165360,165480
1,0,66,80,165480,165600
2,0,42,80,165600,165840
2,0,54,80,165600,165840
2,0,59,80,165600,165840
1,0,67,80,165600,165720
1,0,66,80,165720,165840
2,0,42,80,165840,165960
2,0,54,80,165840,165960
2,0,59,80,165840,166080
1,0,67,80,165840,165960
1,0,71,80,165840,166080
1,0,66,80,165960,166080
2,0,40,80,166080,166320
2,0,52,80,166080,166320
2,0,59,80,166080,166320
1,0,67,80,166080,166200
1,0,67,80,166080,166440
1,0,66,80,166200,166320
2,0,40,80,166320,166440
2,0,52,80,166320,166440
2,0,59,80,166320,166560
1,0,67,80,166320,166680
1,0,66,80,166440,166560
2,0,43,80,166560,166800
2,0,55,80,166560,166800
2,0,59,80,166560,166800
1,0,67,80,166560,166920
1,0,66,80,166680,166800
2,0,43,80,166800,166920
2,0,55,80,166800,166920
2,0,59,80,166800,167040
1,0,67,80,166800,167040
1,0,66,80,166920,167040
2,0,40,80,167040,167280
2,0,52,80,167040,167280
1,0,60,80,167040,167280
1,0,64,80,167040,167520
1,0,72,80,167040,167160
1,0,71,80,167160,167280
2,0,40,80,167280,167400
2,0,52,80,167280,167400
1,0,60,80,167280,167520
1,0,72,80,167280,167400
1,0,71,80,167400,167520
2,0,44,80,167520,167760
2,0,56,80,167520,167760
1,0,63,80,167520,167640
1,0,64,80,167520,167760
1,0,64,80,167640,168000
2,0,44,80,167760,167880
2,0,56,80,167760,167880
1,0,63,80,167760,167880
1,0,64,80,167880,168000
2,0,40,80,168000,168240
2,0,52,80,168000,168240
1,0,60,80,168000,168240
1,0,64,80,168000,168600
1,0,72,80,168000,168120
1,0,71,80,168120,168240
2,0,40,80,168240,168360
2,0,52,80,168240,168360
1,0,60,80,168240,168480
1,0,72,80,168240,168360
1,0,71,80,168360,168480
2,0,45,80,168480,168720
2,0,57,80,168480,168720
1,0,60,80,168480,168720
1,0,64,80,168480,168720
1,0,65,80,168600,168720
2,0,45,80,168720,168840
2,0,57,80,168720,168840
1,0,60,80,168720,168960
1,0,64,80,168720,168840
1,0,71,80,168720,168960
1,0,65,80,168840,168960
2,0,40,80,168960,169200
2,0,52,80,168960,169200
1,0,72,80,168960,169080
1,0,72,80,168960,169320
1,0,71,80,169080,169200
2,0,40,80,169200,169320
2,0,52,80,169200,169320
1,0,72,80,169200,169440
1,0,71,80,169320,169440
2,0,46,80,169440,169680
2,0,58,80,169440,169680
1,0,64,80,169440,169560
1,0,66,80,169440,169680
1,0,66,80,169560,169920
2,0,46,80,169680,169800
2,0,58,80,169680,169800
1,0,64,80,169680,169800
1,0,66,80,169800,169920
2,0,40,80,169920,170160
2,0,52,80,169920,170160
1,0,60,80,169920,170160
1,0,66,80,169920,170400
1,0,72,80,169920,170040
1,0,71,80,170040,170160
2,0,40,80,170160,170280
2,0,52,80,170160,170280
1,0,60,80,170160,170400
1,0,72,80,170160,170280
1,0,71,80,170280,170400
2,0,47,80,170400,170640
2,0,59,80,170400,170640
1,0,60,80,170400,170640
1,0,66,80,170400,170520
1,0,67,80,170400,170640
1,0,67,80,170520,170640
2,0,47,80,170640,170760
2,0,59,80,170640,170760
1,0,60,80,170640,170880
1,0,66,80,170640,170760
1,0,67,80,170640,170880
1,0,67,80,170760,170880
2,0,40,80,170880,171120
2,0,52,80,170880,171120
1,0,72,80,170880,171000
1,0,72,80,170880,171240
1,0,71,80,171000,171120
2,0,40,80,171120,171240
2,0,52,80,171120,171240
1,0,72,80,171120,171840
1,0,71,80,171240,171360
2,0,48,80,171360,171600
1,0,60,80,171360,171600
1,0,66,80,171360,171480
1,0,67,80,171480,171600
2,0,48,80,171600,171720
1,0,60,80,171600,171720
1,0,66,80,171600,171720
1,0,67,80,171720,171840
2,0,40,80,171840,172320
1,0,78,80,171840,171960
1,0,67,80,171960,172320
1,0,79,80,171960,172320
2,0,52,80,172320,172800
1,0,67,80,172320,172800
1,0,78,80,172320,172440
1,0,67,80,172440,172800
1,0,79,80,172440,172800
2,0,48,80,172800,173280
1,0,68,80,172800,173280
1,0,79,80,172800,172920
1,0,68,80,172920,173280
1,0,80,80,172920,173280
1,0,60,80,173280,173760
1,0,69,80,173280,173520
1,0,80,80,173280,173400
1,0,69,80,173400,173760
1,0,81,80,173400,173760
1,0,69,80,173520,173760
2,0,49,80,173760,174240
1,0,61,80,174240,174720
2,0,50,80,174720,175200
1,0,62,80,175200,175680
2,0,52,80,175680,176160
1,0,71,80,175680,176160
1,0,82,80,175680,175800
1,0,71,80,175800,176160
1,0,83,80,175800,176160
1,0,64,80,176160,176640
1,0,73,80,176160,176640
1,0,84,80,176160,176280
1,0,73,80,176280,176640
1,0,85,80,176280,176640
2,0,53,80,176640,177120
1,0,72,80,176640,176760
1,0,73,80,176760,177120
1,0,60,80,177120,177240
1,0,65,80,177120,177600
1,0,61,80,177240,177600
1,0,60,80,177600,177720
1,0,61,80,177720,178080
2,0,48,80,178080,178200
2,0,49,80,178200,178560
2,0,36,80,178560,178680
2,0,48,80,178560,178680
2,0,52,80,178560,179520
2,0,37,80,178680,179040
2,0,49,80,178680,179040
2,0,37,80,179040,179520
2,0,49,80,179520,180000
1,0,64,80,179520,180480
2,0,37,80,180000,180960
1,0,68,80,180000,180480
2,0,52,80,180480,181440
2,0,49,80,180960,181920
1,0,64,80,181440,182400
2,0,37,80,182400,183360
2,0,52,80,182400,183360
1,0,69,80,182400,182720
1,0,68,80,182720,183040
1,0,67,80,183040,183360
2,0,49,80,183360,184320
1,0,64,80,183360,184320
1,0,68,80,183360,184320
2,0,37,80,184320,185280
2,0,52,80,184320,185280
2,0,49,80,185280,186240
1,0,64,80,185280,186240
2,0,25,80,186240,186480
2,0,37,80,186240,186480
2,0,52,80,186240,187200
2,0,37,80,186480,186600
2,0,49,80,186480,186600
2,0,37,80,186720,186840
2,0,49,80,186840,186960
2,0,37,80,186960,187080
2,0,49,80,187080,187200
2,0,37,80,187200,188160
1,0,64,80,187200,188160
1,0,64,80,187680,188160
2,0,49,80,188160,189120
2,0,52,80,188160,189120
1,0,64,80,189120,190080
2,0,39,80,190080,191040
2,0,54,80,190080,191040
1,0,61,80,190080,190400
1,0,60,80,190400,190720
1,0,61,80,190720,191040
2,0,51,80,191040,192000
1,0,63,80,191040,192000
1,0,66,80,191040,192000
2,0,39,80,192000,192960
2,0,54,80,192000,192960
2,0,51,80,192960,193920
1,0,66,80,192960,193920
2,0,27,80,193920,194160
2,0,39,80,193920,194160
2,0,54,80,193920,194880
2,0,39,80,194160,194280
2,0,51,80,194160,194280
2,0,39,80,194400,195840
1,0,66,80,194880,195840
2,0,51,80,195840,197280
2,0,54,80,195840,196800
1,0,66,80,196800,197760
2,0,39,80,197760,198720
2,0,54,80,197760,198720
1,0,63,80,197760,198240
1,0,66,80,198240,198720
2,0,51,80,198720,199680
1,0,66,80,198720,199680
1,0,69,80,198720,199200
1,0,72,80,199200,199680
2,0,39,80,199680,200640
2,0,54,80,199680,200640
2,0,51,80,200640,201600
1,0,66,80,200640,201600
2,0,39,80,201600,202560
2,0,54,80,201600,202560
1,0,71,80,201600,203040
2,0,51,80,202560,203520
1,0,66,80,202560,203520
1,0,71,80,203040,203520
2,0,39,80,203520,204480
2,0,54,80,203520,204480
2,0,51,80,204480,205440
1,0,66,80,204480,205440
2,0,40,80,205440,205500
2,0,52,80,205440,205560
2,0,55,80,205440,206400
1,0,76,80,205440,207360
2,0,40,80,205560,205680
2,0,52,80,205680,205800
2,0,40,80,205800,205920
2,0,52,80,205920,206880
1,0,67,80,206400,207360
2,0,40,80,206880,207840
2,0,55,80,207360,208320
2,0,28,80,207840,207900
2,0,28,80,207840,208320
2,0,40,80,207840,208320
1,0,67,80,208320,209280
2,0,40,80,209280,209340
2,0,52,80,209280,209400
2,0,55,80,209280,209760
1,0,67,80,209280,209760
1,0,76,80,209280,211200
2,0,40,80,209400,209520
2,0,52,80,209520,209640
2,0,40,80,209640,209760
2,0,52,80,209760,210720
1,0,67,80,209760,210240
1,0,79,80,209760,210240
1,0,66,80,210240,210720
1,0,78,80,210240,210720
2,0,40,80,210720,211680
1,0,67,80,210720,211200
1,0,79,80,210720,211200
2,0,27,80,211680,211740
2,0,27,80,211680,212160
2,0,39,80,211680,212160
2,0,39,80,212160,212220
2,0,51,80,212160,212280
2,0,55,80,212160,212640
1,0,67,80,212160,212640
2,0,39,80,212280,212400
2,0,51,80,212400,212520
2,0,39,80,212520,212640
2,0,51,80,212640,213600
1,0,67,80,212640,213120
1,0,79,80,212640,213120
1,0,66,80,213120,213600
1,0,78,80,213120,213600
2,0,39,80,213600,214560
1,0,67,80,213600,214080
1,0,79,80,213600,214080
2,0,26,80,214560,214620
2,0,26,80,214560,215040
2,0,38,80,214560,215040
2,0,38,80,215040,215100
2,0,50,80,215040,215160
2,0,55,80,215040,215520
1,0,67,80,215040,215520
2,0,38,80,215160,215280
2,0,50,80,215280,215400
2,0,38,80,215400,215520
2,0,50,80,215520,216480
1,0,67,80,215520,216000
1,0,79,80,215520,216000
1,0,66,80,216000,216480
1,0,78,80,216000,216480
2,0,38,80,216480,217440
1,0,67,80,216480,216960
1,0,79,80,216480,216960
2,0,25,80,217440,217500
2,0,25,80,217440,217920
2,0,37,80,217440,217920
2,0,37,80,217920,217980
2,0,49,80,217920,218040
2,0,55,80,217920,218400
1,0,67,80,217920,218400
2,0,37,80,218040,218160
2,0,49,80,218160,218280
2,0,37,80,218280,218400
2,0,49,80,218400,219360
1,0,67,80,218400,218880
1,0,79,80,218400,218880
1,0,66,80,218880,219360
1,0,78,80,218880,219360
2,0,37,80,219360,220320
1,0,67,80,219360,219840
1,0,79,80,219360,219840
2,0,24,80,220320,220380
2,0,24,80,220320,220800
2,0,36,80,220320,220800
2,0,36,80,220800,222240
2,0,48,80,220800,222240
2,0,55,80,220800,221280
1,0,67,80,220800,221280
1,0,67,80,221280,221760
1,0,79,80,221280,221760
1,0,66,80,221760,222240
1,0,78,80,221760,222240
2,0,35,80,222240,222720
2,0,47,80,222240,222720
1,0,67,80,222240,222720
1,0,79,80,222240,222720
2,0,48,80,222720,224160
1,0,60,80,222720,224160
1,0,79,80,223200,223680
1,0,91,80,223200,223680
1,0,78,80,223680,224160
1,0,90,80,223680,224160
2,0,47,80,224160,224640
2,0,59,80,224160,224640
1,0,79,80,224160,224640
1,0,91,80,224160,224640
1,0,60,80,224640,225120
1,0,67,80,224640,224880
1,0,71,80,224640,224880
1,0,71,80,224640,224880
1,0,83,80,224640,224880
1,0,76,80,224880,225120
1,0,76,80,224880,225120
1,0,88,80,224880,225120
2,0,59,80,225120,225180
1,0,60,80,225120,226560
1,0,67,80,225120,226080
1,0,71,80,225120,226080
1,0,76,80,225120,226080
1,0,76,80,225120,226080
1,0,88,80,225120,226080
2,0,59,80,226560,228000
1,0,60,80,228000,228960
2,0,59,80,228960,229920
1,0,60,80,229920,230880
2,0,59,80,230880,231840
1,0,60,80,231840,232800
2,0,59,80,232800,233760
1,0,64,80,233280,233520
1,0,64,80,233520,233760
1,0,60,80,233760,234720
2,0,59,80,234720,235680
1,0,60,80,235680,236640
1,0,66,80,235680,236160
1,0,64,80,236160,236640
2,0,59,80,236640,237600
1,0,67,80,236640,237120
1,0,64,80,237120,237600
1,0,60,80,237600,238560
2,0,59,80,238560,239520
1,0,60,80,239520,240960
2,0,59,80,240480,240720
2,0,59,80,240720,240960
2,0,58,80,240960,241200
2,0,59,80,240960,242400
1,0,67,80,240960,241440
2,0,58,80,241200,241440
1,0,64,80,241440,241920
2,0,58,80,242400,242880
2,0,58,80,242880,243360
1,0,64,80,242880,243840
1,0,67,80,242880,243840
2,0,51,80,243840,243960
1,0,64,80,243840,244800
2,0,52,80,243960,244080
2,0,59,80,244080,244200
1,0,60,80,244200,244320
1,0,60,80,244320,244800
1,0,67,80,244800,245760
1,0,64,80,245760,246720
1,0,60,80,246720,248160
1,0,67,80,246720,247680
1,0,67,80,247200,247680
1,0,64,80,247680,248640
1,0,64,80,247680,248640
2,0,51,80,248160,248280
2,0,52,80,248280,248400
2,0,59,80,248400,248520
1,0,60,80,248520,248640
1,0,67,80,248640,249600
1,0,64,80,249600,250560
1,0,60,80,250560,251040
1,0,67,80,250560,251040
2,0,52,80,251040,251160
1,0,64,80,251040,251520
2,0,53,80,251160,251280
1,0,60,80,251280,251400
1,0,61,80,251400,251520
1,0,61,80,251520,252480
1,0,65,80,251520,252240
1,0,65,80,252000,252480
1,0,65,80,252240,252960
1,0,64,80,252960,254400
1,0,61,80,254400,255360
1,0,65,80,254400,255360
1,0,64,80,255360,256320
1,0,65,80,256320,257280
1,0,64,80,257280,258240
2,0,47,80,258240,258360
2,0,59,80,258240,258360
2,0,48,80,258360,258720
1,0,60,80,258360,258480
1,0,65,80,258480,258600
1,0,66,80,258600,258720
2,0,48,80,258720,259200
1,0,66,80,258720,258960
1,0,66,80,258720,259200
1,0,66,80,258960,259200
2,0,47,80,259200,259320
2,0,59,80,259200,259320
1,0,67,80,259200,259680
2,0,48,80,259320,259680
1,0,60,80,259320,259440
1,0,66,80,259440,259560
1,0,67,80,259560,259920
2,0,48,80,259680,260160
1,0,67,80,259680,260160
1,0,67,80,259920,260160
2,0,47,80,260160,260280
2,0,59,80,260160,260280
1,0,68,80,260160,260640
2,0,48,80,260280,260640
1,0,60,80,260280,260400
1,0,67,80,260400,260520
1,0,68,80,260520,260880
2,0,48,80,260640,262080
1,0,68,80,260640,261120
1,0,68,80,260880,262080
2,0,48,80,262080,263040
1,0,60,80,262080,263040
1,0,68,80,262080,263040
1,0,60,80,263040,263160
1,0,67,80,263160,263280
1,0,68,80,263280,263520
1,0,68,80,263520,264000
1,0,60,80,264000,264120
1,0,60,80,264000,264960
1,0,68,80,264120,264240
1,0,69,80,264240,264480
1,0,69,80,264480,264960
1,0,60,80,264960,265080
1,0,60,80,264960,265920
1,0,69,80,265080,265200
1,0,70,80,265200,265440
1,0,70,80,265440,265920
1,0,60,80,265920,266040
1,0,60,80,265920,266160
1,0,70,80,266040,266160
2,0,59,80,266160,266400
1,0,71,80,266160,266400
2,0,59,80,266400,266880
1,0,71,80,266400,266880
1,0,60,80,266880,267120
2,0,59,80,267120,267840
2,0,59,80,267840,268320
1,0,60,80,268320,269280
1,0,67,80,268800,269760
2,0,50,80,269760,270720
2,0,53,80,269760,270720
1,0,60,80,269760,270720
1,0,69,80,269760,270080
1,0,67,80,270080,270400
1,0,65,80,270400,270720
2,0,55,80,270720,271680
2,0,59,80,270720,271680
1,0,62,80,270720,271680
1,0,67,80,270720,271680
2,0,55,80,271680,273600
2,0,59,80,271680,273600
1,0,64,80,271680,273600
1,0,64,80,272640,273600
1,0,60,80,273600,273920
1,0,64,80,273600,274560
1,0,67,80,273600,274560
2,0,59,80,273920,274240
1,0,60,80,274240,274560
1,0,62,80,274560,275520
1,0,62,80,274560,275520
1,0,65,80,274560,275520
1,0,60,80,275520,277440
1,0,62,80,275520,276480
1,0,62,80,275520,277440
1,0,65,80,275520,277440
1,0,63,80,277440,278640
2,0,59,80,277560,277680
2,0,57,80,277680,277920
2,0,57,80,277920,279360
1,0,63,80,278400,279360
1,0,66,80,278640,278880
1,0,69,80,278880,279120
1,0,72,80,279120,279360
1,0,63,80,279360,280320
1,0,71,80,279360,280800
2,0,55,80,279480,279600
2,0,54,80,279600,279840
2,0,54,80,279840,280320
1,0,63,80,280320,281280
2,0,48,80,280440,280560
2,0,47,80,280560,280800
2,0,47,80,280800,281280
1,0,71,80,280800,281280
2,0,40,80,281280,283200
2,0,55,80,281280,283200
1,0,67,80,281280,283200
1,0,76,80,281280,283200
2,0,48,80,281400,281520
2,0,47,80,281520,281760
2,0,47,80,281760,283200
2,0,40,80,283200,285120
2,0,55,80,283200,285120
1,0,67,80,283200,285120
1,0,76,80,283200,285120
2,0,48,80,283320,283440
2,0,47,80,283440,283680
2,0,47,80,283680,285120
2,0,40,80,285120,287040
2,0,47,80,285120,287040
2,0,55,80,285120,287040
